timestamp,value
00.000,256.51
00.015,222.43
00.031,186.11
00.046,149.94
00.062,115.89
00.078,84.96
00.093,56.93
00.109,30.76
00.125,4.94
00.140,-21.84
00.156,-49.8
00.171,-77.96
00.187,-104.67
00.203,-128.47
00.218,-148.9
00.234,-166.42
00.250,-181.64
00.265,-194.21
00.281,-202.43
00.296,-204.0
00.312,-197.73
00.328,-184.87
00.343,-169.05
00.359,-154.8
00.375,-145.25
00.390,-140.74
00.406,-138.85
00.421,-135.84
00.437,-128.73
00.453,-116.73
00.468,-101.2
00.484,-84.76
00.500,-70.08
00.515,-58.96
00.531,-52.14
00.546,-49.46
00.562,-50.16
00.578,-53.14
00.593,-57.33
00.609,-61.52
00.625,-64.57
00.640,-65.77
00.656,-64.89
00.671,-62.16
00.687,-58.06
00.703,-53.09
00.718,-47.62
00.734,-41.81
00.750,-35.63
00.765,-29.1
00.781,-22.41
00.796,-16.14
00.812,-11.25
00.828,-8.87
00.843,-9.94
00.859,-14.82
00.875,-23.03
00.890,-33.27
00.906,-43.92
00.921,-53.79
00.937,-63.0
00.953,-73.32
00.968,-87.82
00.984,-109.89
01.000,-141.94
01.015,-184.28
01.031,-234.32
01.046,-286.76
01.062,-334.38
01.078,-369.58
01.093,-386.31
01.109,-381.77
01.125,-357.21
01.140,-317.65
01.156,-270.24
01.171,-222.09
01.187,-178.46
01.203,-141.65
01.218,-111.36
01.234,-85.74
01.250,-62.9
01.265,-41.74
01.281,-22.11
01.296,-4.36
01.312,11.21
01.328,24.61
01.343,36.11
01.359,46.0
01.375,54.38
01.390,61.05
01.406,65.68
01.421,68.18
01.437,69.0
01.453,69.16
01.468,69.9
01.484,72.23
01.500,76.29
01.515,81.33
01.531,85.91
01.546,88.57
01.562,88.44
01.578,85.55
01.593,80.78
01.609,75.24
01.625,69.97
01.640,65.4
01.656,61.44
01.671,57.6
01.687,53.39
01.703,48.53
01.718,42.94
01.734,36.75
01.750,30.07
01.765,23.08
01.781,16.06
01.796,9.57
01.812,4.5
01.828,1.82
01.843,2.37
01.859,6.5
01.875,13.97
01.890,24.02
01.906,35.59
01.921,47.74
01.937,59.73
01.953,71.15
01.968,81.72
01.984,91.26
02.000,99.41
02.015,105.88
02.031,110.43
02.046,113.08
02.062,114.01
02.078,113.63
02.093,112.37
02.109,110.58
02.125,108.52
02.140,106.22
02.156,103.68
02.171,100.84
02.187,97.62
02.203,93.91
02.218,89.63
02.234,84.67
02.250,78.92
02.265,72.38
02.281,65.03
02.296,57.01
02.312,48.58
02.328,40.1
02.343,32.04
02.359,24.85
02.375,18.8
02.390,13.89
02.406,9.84
02.421,6.13
02.437,2.13
02.453,-2.71
02.468,-8.75
02.484,-15.97
02.500,-23.94
02.515,-31.75
02.531,-38.14
02.546,-41.8
02.562,-41.69
02.578,-37.4
02.593,-29.28
02.609,-18.32
02.625,-5.74
02.640,7.31
02.656,19.99
02.671,31.81
02.687,42.5
02.703,51.82
02.718,59.51
02.734,65.33
02.750,69.14
02.765,71.08
02.781,71.48
02.796,70.79
02.812,69.47
02.828,67.83
02.843,66.03
02.859,64.11
02.875,62.0
02.890,59.62
02.906,56.98
02.921,54.15
02.937,51.34
02.953,48.8
02.968,46.71
02.984,45.08
03.000,43.65
03.015,41.98
03.031,39.61
03.046,36.3
03.062,32.08
03.078,27.22
03.093,22.1
03.109,16.92
03.125,11.69
03.140,6.25
03.156,0.4
03.171,-5.92
03.187,-12.64
03.203,-19.57
03.218,-26.41
03.234,-32.63
03.250,-37.56
03.265,-40.31
03.281,-40.03
03.296,-36.15
03.312,-28.7
03.328,-18.34
03.343,-6.21
03.359,6.44
03.375,18.7
03.390,30.01
03.406,40.18
03.421,49.13
03.437,56.73
03.453,62.77
03.468,67.02
03.484,69.4
03.500,70.1
03.515,69.52
03.531,68.09
03.546,66.16
03.562,63.88
03.578,61.15
03.593,57.84
03.609,53.89
03.625,49.33
03.640,44.44
03.656,39.55
03.671,34.9
03.687,30.63
03.703,26.67
03.718,22.83
03.734,18.98
03.750,15.01
03.765,10.9
03.781,6.67
03.796,2.4
03.812,-1.91
03.828,-6.18
03.843,-10.41
03.859,-14.7
03.875,-19.2
03.890,-24.13
03.906,-29.71
03.921,-35.99
03.937,-42.82
03.953,-49.81
03.968,-56.19
03.984,-61.02
04.000,-63.31
04.015,-62.24
04.031,-57.5
04.046,-49.37
04.062,-38.71
04.078,-26.67
04.093,-14.47
04.109,-2.97
04.125,7.37
04.140,16.37
04.156,24.01
04.171,30.2
04.187,34.83
04.203,37.74
04.218,39.03
04.234,38.94
04.250,37.97
04.265,36.64
04.281,35.32
04.296,34.27
04.312,33.46
04.328,32.76
04.343,31.95
04.359,30.83
04.375,29.23
04.390,27.15
04.406,24.64
04.421,21.81
04.437,18.79
04.453,15.6
04.468,12.14
04.484,8.3
04.500,3.99
04.515,-0.71
04.531,-5.54
04.546,-10.17
04.562,-14.35
04.578,-17.94
04.593,-21.07
04.609,-24.04
04.625,-27.18
04.640,-30.84
04.656,-35.25
04.671,-40.47
04.687,-46.31
04.703,-52.26
04.718,-57.46
04.734,-60.85
04.750,-61.43
04.765,-58.55
04.781,-52.17
04.796,-42.87
04.812,-31.73
04.828,-19.97
04.843,-8.73
04.859,1.24
04.875,9.58
04.890,16.23
04.906,21.38
04.921,25.17
04.937,27.73
04.953,29.09
04.968,29.35
04.984,28.69
05.000,27.51
05.015,26.27
05.031,25.31
05.046,24.76
05.062,24.43
05.078,24.01
05.093,23.24
05.109,22.1
05.125,20.72
05.140,19.35
05.156,18.09
05.171,16.85
05.187,15.37
05.203,13.43
05.218,10.93
05.234,7.94
05.250,4.61
05.265,0.99
05.281,-2.95
05.296,-7.27
05.312,-11.98
05.328,-16.93
05.343,-21.88
05.359,-26.58
05.375,-30.92
05.390,-34.9
05.406,-38.65
05.421,-42.39
05.437,-46.33
05.453,-50.67
05.468,-55.52
05.484,-60.82
05.500,-66.13
05.515,-70.67
05.531,-73.35
05.546,-73.08
05.562,-69.2
05.578,-61.69
05.593,-51.34
05.609,-39.42
05.625,-27.29
05.640,-15.98
05.656,-5.98
05.671,2.67
05.687,10.1
05.703,16.46
05.718,21.69
05.734,25.7
05.750,28.38
05.765,29.86
05.781,30.42
05.796,30.48
05.812,30.3
05.828,29.99
05.843,29.5
05.859,28.73
05.875,27.67
05.890,26.5
05.906,25.47
05.921,24.76
05.937,24.31
05.953,23.89
05.968,23.11
05.984,21.72
06.000,19.71
06.015,17.3
06.031,14.8
06.046,12.37
06.062,9.95
06.078,7.37
06.093,4.46
06.109,1.22
06.125,-2.2
06.140,-5.54
06.156,-8.6
06.171,-11.36
06.187,-13.93
06.203,-16.47
06.218,-19.06
06.234,-21.7
06.250,-24.25
06.265,-26.58
06.281,-28.44
06.296,-29.45
06.312,-29.07
06.328,-26.62
06.343,-21.43
06.359,-13.15
06.375,-1.96
06.390,11.45
06.406,25.91
06.421,40.23
06.437,53.47
06.453,65.21
06.468,75.54
06.484,84.91
06.500,93.86
06.515,102.77
06.531,111.79
06.546,120.8
06.562,129.67
06.578,138.25
06.593,146.59
06.609,154.82
06.625,163.07
06.640,171.4
06.656,179.88
06.671,188.68
06.687,197.97
06.703,207.89
06.718,218.09
06.734,227.42
06.750,233.94
06.765,235.31
06.781,229.56
06.796,215.94
06.812,195.15
06.828,169.12
06.843,140.3
06.859,110.86
06.875,82.21
06.890,55.1
06.906,29.94
06.921,7.16
06.937,-12.68
06.953,-29.19
06.968,-42.51
06.984,-53.52
07.000,-63.6
07.015,-74.04
07.031,-85.4
07.046,-97.22
07.062,-108.19
07.078,-116.88
07.093,-122.45
07.109,-125.09
07.125,-125.84
07.140,-126.07
07.156,-126.64
07.171,-127.59
07.187,-128.27
07.203,-127.76
07.218,-125.53
07.234,-121.7
07.250,-116.87
07.265,-111.86
07.281,-107.19
07.296,-103.03
07.312,-99.07
07.328,-94.75
07.343,-89.43
07.359,-82.69
07.375,-74.41
07.390,-65.01
07.406,-55.2
07.421,-45.91
07.437,-38.04
07.453,-32.19
07.468,-28.66
07.484,-27.35
07.500,-27.87
07.515,-29.52
07.531,-31.48
07.546,-33.04
07.562,-33.86
07.578,-34.3
07.593,-35.35
07.609,-38.41
07.625,-44.65
07.640,-54.69
07.656,-68.38
07.671,-84.94
07.687,-103.35
07.703,-122.55
07.718,-141.64
07.734,-159.71
07.750,-175.95
07.765,-189.61
07.781,-200.11
07.796,-207.19
07.812,-210.77
07.828,-210.76
07.843,-206.96
07.859,-199.11
07.875,-187.02
07.890,-170.94
07.906,-151.65
07.921,-130.34
07.937,-108.35
07.953,-86.81
07.968,-66.45
07.984,-47.62
08.000,-30.54
08.015,-15.47
08.031,-2.86
08.046,6.78
08.062,13.09
08.078,16.13
08.093,16.5
08.109,15.15
08.125,13.15
08.140,11.37
08.156,10.31
08.171,10.08
08.187,10.57
08.203,11.64
08.218,13.21
08.234,15.27
08.250,17.74
08.265,20.32
08.281,22.48
08.296,23.52
08.312,22.86
08.328,20.23
08.343,15.8
08.359,9.98
08.375,3.23
08.390,-4.16
08.406,-12.31
08.421,-21.44
08.437,-31.83
08.453,-43.57
08.468,-56.44
08.484,-69.84
08.500,-82.89
08.515,-94.39
08.531,-103.03
08.546,-107.7
08.562,-107.7
08.578,-103.1
08.593,-94.78
08.609,-84.12
08.625,-72.56
08.640,-61.15
08.656,-50.32
08.671,-39.98
08.687,-29.79
08.703,-19.52
08.718,-9.19
08.734,0.93
08.750,10.49
08.765,19.29
08.781,27.23
08.796,34.34
08.812,40.54
08.828,45.57
08.843,49.02
08.859,50.45
08.875,49.63
08.890,46.69
08.906,42.18
08.921,36.86
08.937,31.53
08.953,26.8
08.968,22.96
08.984,20.06
09.000,17.95
09.015,16.4
09.031,15.26
09.046,14.38
09.062,13.64
09.078,12.93
09.093,12.1
09.109,10.98
09.125,9.38
09.140,7.11
09.156,4.05
09.171,0.2
09.187,-4.3
09.203,-9.19
09.218,-14.12
09.234,-18.82
09.250,-23.19
09.265,-27.26
09.281,-31.24
09.296,-35.37
09.312,-39.9
09.328,-44.99
09.343,-50.7
09.359,-56.81
09.375,-62.76
09.390,-67.68
09.406,-70.41
09.421,-69.88
09.437,-65.37
09.453,-56.8
09.468,-44.78
09.484,-30.47
09.500,-15.17
09.515,-0.14
09.531,13.73
09.546,25.95
09.562,36.26
09.578,44.64
09.593,51.07
09.609,55.6
09.625,58.33
09.640,59.52
09.656,59.44
09.671,58.51
09.687,57.17
09.703,55.72
09.718,54.4
09.734,53.33
09.750,52.55
09.765,52.04
09.781,51.8
09.796,51.74
09.812,51.81
09.828,51.91
09.843,51.87
09.859,51.5
09.875,50.58
09.890,48.87
09.906,46.22
09.921,42.59
09.937,38.12
09.953,33.17
09.968,28.17
09.984,23.45
10.000,19.25
10.015,15.5
10.031,11.98
10.046,8.4
10.062,4.51
10.078,0.12
10.093,-4.89
10.109,-10.67
10.125,-17.31
10.140,-24.61
10.156,-32.04
10.171,-38.56
10.187,-42.82
10.203,-43.58
10.218,-40.12
10.234,-32.57
10.250,-21.85
10.265,-9.37
10.281,3.41
10.296,15.43
10.312,26.1
10.328,35.34
10.343,43.22
10.359,49.75
10.375,54.72
10.390,57.78
10.406,58.51
10.421,56.6
10.437,52.0
10.453,44.92
10.468,35.96
10.484,25.99
10.500,15.97
10.515,6.82
10.531,-0.84
10.546,-6.7
10.562,-10.82
10.578,-13.5
10.593,-15.07
10.609,-15.77
10.625,-15.75
10.640,-15.1
10.656,-13.96
10.671,-12.57
10.687,-11.21
10.703,-10.21
10.718,-9.8
10.734,-10.09
10.750,-11.05
10.765,-12.57
10.781,-14.45
10.796,-16.48
10.812,-18.42
10.828,-20.07
10.843,-21.39
10.859,-22.53
10.875,-23.81
10.890,-25.68
10.906,-28.52
10.921,-32.47
10.937,-37.14
10.953,-41.61
10.968,-44.63
10.984,-44.91
11.000,-41.55
11.015,-34.4
11.031,-24.07
11.046,-11.68
11.062,1.46
11.078,14.28
11.093,26.08
11.109,36.52
11.125,45.46
11.140,52.82
11.156,58.51
11.171,62.46
11.187,64.75
11.203,65.62
11.218,65.4
11.234,64.36
11.250,62.77
11.265,60.8
11.281,58.62
11.296,56.47
11.312,54.51
11.328,52.9
11.343,51.65
11.359,50.63
11.375,49.62
11.390,48.33
11.406,46.6
11.421,44.29
11.437,41.44
11.453,38.15
11.468,34.58
11.484,30.87
11.500,27.1
11.515,23.29
11.531,19.43
11.546,15.54
11.562,11.64
11.578,7.75
11.593,3.92
11.609,0.17
11.625,-3.55
11.640,-7.33
11.656,-11.29
11.671,-15.59
11.687,-20.41
11.703,-25.78
11.718,-31.42
11.734,-36.73
11.750,-40.76
11.765,-42.41
11.781,-40.84
11.796,-35.63
11.812,-27.1
11.828,-16.15
11.843,-4.05
11.859,7.95
11.875,18.87
11.890,28.11
11.906,35.53
11.921,41.19
11.937,45.29
11.953,48.0
11.968,49.48
11.984,49.93
12.000,49.56
12.015,48.72
12.031,47.65
12.046,46.6
12.062,45.62
12.078,44.67
12.093,43.62
12.109,42.43
12.125,41.15
12.140,39.83
12.156,38.58
12.171,37.4
12.187,36.18
12.203,34.77
12.218,33.05
12.234,30.95
12.250,28.51
12.265,25.83
12.281,22.96
12.296,19.98
12.312,16.82
12.328,13.46
12.343,9.87
12.359,6.1
12.375,2.29
12.390,-1.39
12.406,-4.86
12.421,-8.18
12.437,-11.46
12.453,-15.0
12.468,-19.0
12.484,-23.5
12.500,-28.26
12.515,-32.74
12.531,-36.15
12.546,-37.62
12.562,-36.5
12.578,-32.46
12.593,-25.78
12.609,-17.15
12.625,-7.5
12.640,2.17
12.656,11.05
12.671,18.64
12.687,24.68
12.703,29.11
12.718,32.01
12.734,33.49
12.750,33.85
12.765,33.47
12.781,32.75
12.796,32.02
12.812,31.45
12.828,31.03
12.843,30.63
12.859,30.15
12.875,29.45
12.890,28.51
12.906,27.35
12.921,25.96
12.937,24.43
12.953,22.78
12.968,21.07
12.984,19.27
13.000,17.32
13.015,15.05
13.031,12.31
13.046,8.98
13.062,5.08
13.078,0.78
13.093,-3.63
13.109,-7.86
13.125,-11.72
13.140,-15.08
13.156,-17.97
13.171,-20.48
13.187,-22.73
13.203,-24.91
13.218,-27.18
13.234,-29.77
13.250,-32.79
13.265,-36.16
13.281,-39.48
13.296,-42.05
13.312,-42.98
13.328,-41.5
13.343,-37.23
13.359,-30.36
13.375,-21.59
13.390,-11.94
13.406,-2.44
13.421,6.14
13.437,13.38
13.453,19.17
13.468,23.63
13.484,26.93
13.500,29.3
13.515,30.83
13.531,31.61
13.546,31.7
13.562,31.19
13.578,30.28
13.593,29.18
13.609,28.09
13.625,27.13
13.640,26.37
13.656,25.72
13.671,25.01
13.687,24.1
13.703,22.89
13.718,21.38
13.734,19.64
13.750,17.69
13.765,15.51
13.781,13.13
13.796,10.51
13.812,7.68
13.828,4.73
13.843,1.72
13.859,-1.24
13.875,-4.16
13.890,-7.09
13.906,-10.12
13.921,-13.3
13.937,-16.66
13.953,-20.09
13.968,-23.52
13.984,-26.92
14.000,-30.32
14.015,-33.77
14.031,-37.27
14.046,-40.59
14.062,-43.28
14.078,-44.73
14.093,-44.24
14.109,-41.33
14.125,-35.89
14.140,-28.27
14.156,-19.16
14.171,-9.49
14.187,-0.16
14.203,8.16
14.218,15.07
14.234,20.56
14.250,24.78
14.265,27.93
14.281,30.11
14.296,31.36
14.312,31.73
14.328,31.29
14.343,30.26
14.359,28.91
14.375,27.5
14.390,26.16
14.406,24.9
14.421,23.64
14.437,22.28
14.453,20.8
14.468,19.24
14.484,17.67
14.500,16.14
14.515,14.7
14.531,13.33
14.546,11.92
14.562,10.4
14.578,8.69
14.593,6.81
14.609,4.86
14.625,2.98
14.640,1.2
14.656,-0.54
14.671,-2.43
14.687,-4.67
14.703,-7.34
14.718,-10.38
14.734,-13.61
14.750,-16.9
14.765,-20.21
14.781,-23.69
14.796,-27.47
14.812,-31.49
14.828,-35.45
14.843,-38.73
14.859,-40.56
14.875,-40.27
14.890,-37.51
14.906,-32.3
14.921,-25.13
14.937,-16.8
14.953,-8.2
14.968,-0.18
14.984,6.63
15.000,11.86
15.015,15.38
15.031,17.31
15.046,17.87
15.062,17.4
15.078,16.2
15.093,14.57
15.109,12.79
15.125,11.1
15.140,9.68
15.156,8.62
15.171,7.95
15.187,7.55
15.203,7.26
15.218,6.87
15.234,6.24
15.250,5.29
15.265,4.07
15.281,2.65
15.296,1.17
15.312,-0.25
15.328,-1.45
15.343,-2.31
15.359,-2.77
15.375,-2.85
15.390,-2.72
15.406,-2.67
15.421,-3.05
15.437,-4.23
15.453,-6.32
15.468,-9.22
15.484,-12.65
15.500,-16.25
15.515,-19.82
15.531,-23.28
15.546,-26.73
15.562,-30.2
15.578,-33.58
15.593,-36.42
15.609,-38.13
15.625,-38.06
15.640,-35.89
15.656,-31.71
15.671,-26.05
15.687,-19.62
15.703,-13.08
15.718,-6.83
15.734,-1.01
15.750,4.35
15.765,9.22
15.781,13.44
15.796,16.88
15.812,19.52
15.828,21.57
15.843,23.32
15.859,24.95
15.875,26.35
15.890,27.11
15.906,26.82
15.921,25.3
15.937,22.77
15.953,19.85
15.968,17.24
15.984,15.43
16.000,14.54
16.015,14.36
16.031,14.55
16.046,14.89
16.062,15.24
16.078,15.55
16.093,15.69
16.109,15.43
16.125,14.45
16.140,12.49
16.156,9.51
16.171,5.71
16.187,1.49
16.203,-2.73
16.218,-6.54
16.234,-9.65
16.250,-11.94
16.265,-13.36
16.281,-14.04
16.296,-14.12
16.312,-13.93
16.328,-13.95
16.343,-14.78
16.359,-16.9
16.375,-20.44
16.390,-24.98
16.406,-29.54
16.421,-32.88
16.437,-33.9
16.453,-32.1
16.468,-27.59
16.484,-21.02
16.500,-13.21
16.515,-4.88
16.531,3.42
16.546,11.27
16.562,18.22
16.578,23.8
16.593,27.61
16.609,29.56
16.625,29.86
16.640,28.96
16.656,27.41
16.671,25.74
16.687,24.44
16.703,23.92
16.718,24.45
16.734,26.1
16.750,28.63
16.765,31.5
16.781,33.97
16.796,35.4
16.812,35.41
16.828,34.01
16.843,31.56
16.859,28.55
16.875,25.48
16.890,22.76
16.906,20.68
16.921,19.46
16.937,19.09
16.953,19.25
16.968,19.19
16.984,17.88
17.000,14.38
17.015,8.15
17.031,-0.63
17.046,-11.09
17.062,-21.9
17.078,-31.77
17.093,-39.76
17.109,-45.41
17.125,-48.7
17.140,-49.8
17.156,-48.92
17.171,-46.31
17.187,-42.24
17.203,-37.18
17.218,-31.79
17.234,-26.85
17.250,-22.99
17.265,-20.39
17.281,-18.79
17.296,-17.52
17.312,-15.81
17.328,-13.21
17.343,-9.72
17.359,-5.77
17.375,-1.95
17.390,1.36
17.406,4.17
17.421,6.9
17.437,9.98
17.453,13.71
17.468,17.98
17.484,22.34
17.500,26.04
17.515,28.38
17.531,28.82
17.546,27.07
17.562,23.22
17.578,17.69
17.593,11.1
17.609,4.15
17.625,-2.59
17.640,-8.81
17.656,-14.41
17.671,-19.47
17.687,-24.04
17.703,-27.99
17.718,-30.98
17.734,-32.6
17.750,-32.58
17.765,-30.95
17.781,-28.16
17.796,-24.92
17.812,-22.03
17.828,-20.12
17.843,-19.56
17.859,-20.42
17.875,-22.55
17.890,-25.78
17.906,-29.91
17.921,-34.68
17.937,-39.66
17.953,-44.12
17.968,-47.12
17.984,-47.78
18.000,-45.57
18.015,-40.5
18.031,-33.24
18.046,-24.79
18.062,-16.2
18.078,-8.22
18.093,-1.19
18.109,4.91
18.125,10.24
18.140,14.9
18.156,18.85
18.171,21.91
18.187,23.99
18.203,25.15
18.218,25.65
18.234,25.86
18.250,26.17
18.265,26.84
18.281,27.93
18.296,29.31
18.312,30.71
18.328,31.92
18.343,32.78
18.359,33.28
18.375,33.5
18.390,33.58
18.406,33.6
18.421,33.64
18.437,33.69
18.453,33.78
18.468,33.99
18.484,34.48
18.500,35.42
18.515,36.98
18.531,39.22
18.546,42.09
18.562,45.38
18.578,48.93
18.593,52.64
18.609,56.58
18.625,60.89
18.640,65.79
18.656,71.38
18.671,77.61
18.687,84.33
18.703,91.33
18.718,98.62
18.734,106.38
18.750,114.98
18.765,124.82
18.781,136.22
18.796,149.24
18.812,163.75
18.828,179.35
18.843,195.43
18.859,210.95
18.875,224.41
18.890,233.83
18.906,237.13
18.921,232.59
18.937,219.36
18.953,197.76
18.968,169.15
18.984,135.59
19.000,99.15
19.015,61.58
19.031,24.14
19.046,-12.16
19.062,-46.31
19.078,-77.07
19.093,-103.2
19.109,-123.73
19.125,-138.37
19.140,-147.59
19.156,-152.54
19.171,-154.62
19.187,-155.12
19.203,-154.99
19.218,-154.82
19.234,-154.95
19.250,-155.62
19.265,-156.84
19.281,-158.29
19.296,-159.26
19.312,-158.7
19.328,-155.52
19.343,-148.91
19.359,-138.65
19.375,-125.19
19.390,-109.75
19.406,-94.08
19.421,-80.26
19.437,-70.35
19.453,-65.9
19.468,-67.58
19.484,-75.0
19.500,-86.71
19.515,-100.66
19.531,-114.76
19.546,-127.31
19.562,-137.28
19.578,-144.17
19.593,-147.83
19.609,-148.25
19.625,-145.53
19.640,-139.96
19.656,-132.15
19.671,-122.95
19.687,-113.29
19.703,-103.88
19.718,-95.07
19.734,-86.78
19.750,-78.78
19.765,-70.84
19.781,-62.81
19.796,-54.72
19.812,-46.6
19.828,-38.47
19.843,-30.33
19.859,-22.27
19.875,-14.49
19.890,-7.37
19.906,-1.39
19.921,3.07
19.937,5.77
19.953,6.8
19.968,6.5
19.984,5.35
20.000,3.86
20.015,2.32
20.031,0.81
20.046,-0.82
20.062,-2.78
20.078,-5.19
20.093,-8.01
20.109,-11.01
20.125,-13.92
20.140,-16.57
20.156,-18.96
20.171,-21.21
20.187,-23.52
20.203,-26.02
20.218,-28.84
20.234,-31.97
20.250,-35.28
20.265,-38.34
20.281,-40.45
20.296,-40.73
20.312,-38.39
20.328,-33.01
20.343,-24.8
20.359,-14.56
20.375,-3.44
20.390,7.41
20.406,17.17
20.421,25.49
20.437,32.31
20.453,37.74
20.468,41.81
20.484,44.48
20.500,45.71
20.515,45.57
20.531,44.4
20.546,42.65
20.562,40.83
20.578,39.33
20.593,38.38
20.609,37.94
20.625,37.87
20.640,37.98
20.656,38.07
20.671,37.98
20.687,37.55
20.703,36.76
20.718,35.56
20.734,34.04
20.750,32.25
20.765,30.22
20.781,27.97
20.796,25.51
20.812,22.85
20.828,19.99
20.843,17.0
20.859,13.89
20.875,10.72
20.890,7.52
20.906,4.28
20.921,0.95
20.937,-2.53
20.953,-6.27
20.968,-10.37
20.984,-14.72
21.000,-18.94
21.015,-22.39
21.031,-24.31
21.046,-24.03
21.062,-21.22
21.078,-16.04
21.093,-8.97
21.109,-0.81
21.125,7.64
21.140,15.67
21.156,22.81
21.171,28.83
21.187,33.71
21.203,37.56
21.218,40.44
21.234,42.42
21.250,43.49
21.265,43.67
21.281,43.06
21.296,41.91
21.312,40.55
21.328,39.25
21.343,38.22
21.359,37.43
21.375,36.72
21.390,35.91
21.406,34.85
21.421,33.46
21.437,31.75
21.453,29.75
21.468,27.49
21.484,25.03
21.500,22.4
21.515,19.6
21.531,16.57
21.546,13.27
21.562,9.68
21.578,5.87
21.593,1.98
21.609,-1.82
21.625,-5.37
21.640,-8.66
21.656,-11.79
21.671,-14.94
21.687,-18.3
21.703,-21.96
21.718,-25.88
21.734,-29.93
21.750,-33.91
21.765,-37.47
21.781,-40.2
21.796,-41.6
21.812,-41.18
21.828,-38.64
21.843,-33.92
21.859,-27.31
21.875,-19.4
21.890,-10.99
21.906,-2.81
21.921,4.52
21.937,10.73
21.953,15.71
21.968,19.58
21.984,22.42
22.000,24.31
22.015,25.31
22.031,25.46
22.046,24.94
22.062,23.93
22.078,22.71
22.093,21.48
22.109,20.34
22.125,19.27
22.140,18.17
22.156,16.99
22.171,15.71
22.187,14.37
22.203,13.02
22.218,11.66
22.234,10.22
22.250,8.62
22.265,6.77
22.281,4.68
22.296,2.4
22.312,-0.01
22.328,-2.46
22.343,-4.94
22.359,-7.5
22.375,-10.13
22.390,-12.81
22.406,-15.47
22.421,-18.1
22.437,-20.7
22.453,-23.44
22.468,-26.48
22.484,-29.95
22.500,-33.81
22.515,-37.72
22.531,-41.12
22.546,-43.27
22.562,-43.46
22.578,-41.23
22.593,-36.56
22.609,-29.8
22.625,-21.66
22.640,-12.94
22.656,-4.41
22.671,3.35
22.687,9.98
22.703,15.4
22.718,19.64
22.734,22.75
22.750,24.81
22.765,25.9
22.781,26.15
22.796,25.81
22.812,25.2
22.828,24.61
22.843,24.23
22.859,24.07
22.875,24.01
22.890,23.93
22.906,23.8
22.921,23.66
22.937,23.6
22.953,23.67
22.968,23.8
22.984,23.83
23.000,23.57
23.015,22.8
23.031,21.41
23.046,19.32
23.062,16.56
23.078,13.24
23.093,9.6
23.109,5.98
23.125,2.73
23.140,0.04
23.156,-2.04
23.171,-3.71
23.187,-5.29
23.203,-7.11
23.218,-9.4
23.234,-12.15
23.250,-15.16
23.265,-17.98
23.281,-20.06
23.296,-20.8
23.312,-19.72
23.328,-16.59
23.343,-11.55
23.359,-5.1
23.375,2.05
23.390,9.18
23.406,15.7
23.421,21.3
23.437,25.89
23.453,29.49
23.468,32.16
23.484,33.96
23.500,34.9
23.515,35.12
23.531,34.81
23.546,34.19
23.562,33.46
23.578,32.72
23.593,32.02
23.609,31.24
23.625,30.38
23.640,29.37
23.656,28.26
23.671,27.07
23.687,25.8
23.703,24.42
23.718,22.82
23.734,20.9
23.750,18.58
23.765,15.93
23.781,13.05
23.796,10.08
23.812,7.11
23.828,4.19
23.843,1.32
23.859,-1.58
23.875,-4.45
23.890,-7.22
23.906,-9.75
23.921,-11.92
23.937,-13.71
23.953,-15.27
23.968,-16.86
23.984,-18.77
24.000,-21.25
24.015,-24.35
24.031,-27.91
24.046,-31.46
24.062,-34.39
24.078,-36.02
24.093,-35.78
24.109,-33.4
24.125,-28.94
24.140,-22.82
24.156,-15.65
24.171,-8.12
24.187,-0.8
24.203,5.84
24.218,11.56
24.234,16.26
24.250,19.91
24.265,22.6
24.281,24.44
24.296,25.53
24.312,25.97
24.328,25.88
24.343,25.4
24.359,24.66
24.375,23.88
24.390,23.15
24.406,22.57
24.421,22.1
24.437,21.6
24.453,20.92
24.468,19.9
24.484,18.38
24.500,16.3
24.515,13.67
24.531,10.52
24.546,7.0
24.562,3.26
24.578,-0.51
24.593,-4.15
24.609,-7.5
24.625,-10.54
24.640,-13.23
24.656,-15.63
24.671,-17.88
24.687,-20.05
24.703,-22.23
24.718,-24.46
24.734,-26.75
24.750,-29.09
24.765,-31.5
24.781,-33.97
24.796,-36.5
24.812,-39.01
24.828,-41.26
24.843,-42.87
24.859,-43.37
24.875,-42.34
24.890,-39.55
24.906,-35.06
24.921,-29.23
24.937,-22.61
24.953,-15.87
24.968,-9.54
24.984,-3.98
25.000,0.7
25.015,4.6
25.031,7.83
25.046,10.48
25.062,12.5
25.078,13.8
25.093,14.26
25.109,13.93
25.125,13.02
25.140,11.96
25.156,11.19
25.171,11.02
25.187,11.5
25.203,12.45
25.218,13.5
25.234,14.3
25.250,14.62
25.265,14.46
25.281,13.91
25.296,13.11
25.312,12.07
25.328,10.74
25.343,9.02
25.359,6.92
25.375,4.57
25.390,2.23
25.406,0.15
25.421,-1.62
25.437,-3.21
25.453,-4.85
25.468,-6.75
25.484,-8.87
25.500,-11.0
25.515,-12.87
25.531,-14.35
25.546,-15.56
25.562,-16.84
25.578,-18.53
25.593,-20.68
25.609,-22.97
25.625,-24.71
25.640,-25.13
25.656,-23.63
25.671,-19.99
25.687,-14.48
25.703,-7.71
25.718,-0.45
25.734,6.64
25.750,13.05
25.765,18.55
25.781,23.05
25.796,26.61
25.812,29.34
25.828,31.37
25.843,32.77
25.859,33.68
25.875,34.19
25.890,34.36
25.906,34.24
25.921,33.86
25.937,33.21
25.953,32.37
25.968,31.46
25.984,30.62
26.000,29.98
26.015,29.49
26.031,28.92
26.046,27.78
26.062,25.53
26.078,21.67
26.093,16.06
26.109,8.93
26.125,0.88
26.140,-7.35
26.156,-15.07
26.171,-21.79
26.187,-27.27
26.203,-31.46
26.218,-34.39
26.234,-36.14
26.250,-36.73
26.265,-36.31
26.281,-35.12
26.296,-33.53
26.312,-32.0
26.328,-31.03
26.343,-31.01
26.359,-32.16
26.375,-34.39
26.390,-37.27
26.406,-40.14
26.421,-42.26
26.437,-43.01
26.453,-41.98
26.468,-39.15
26.484,-34.71
26.500,-29.08
26.515,-22.72
26.531,-16.0
26.546,-9.25
26.562,-2.7
26.578,3.37
26.593,8.65
26.609,12.89
26.625,16.01
26.640,18.05
26.656,19.28
26.671,20.09
26.687,20.73
26.703,21.35
26.718,21.95
26.734,22.39
26.750,22.62
26.765,22.73
26.781,22.82
26.796,23.05
26.812,23.45
26.828,23.93
26.843,24.29
26.859,24.4
26.875,24.14
26.890,23.55
26.906,22.8
26.921,22.07
26.937,21.53
26.953,21.22
26.968,21.0
26.984,20.63
27.000,19.87
27.015,18.57
27.031,16.77
27.046,14.67
27.062,12.53
27.078,10.57
27.093,8.78
27.109,6.95
27.125,4.8
27.140,2.02
27.156,-1.56
27.171,-5.82
27.187,-10.44
27.203,-14.94
27.218,-18.76
27.234,-21.54
27.250,-23.05
27.265,-23.29
27.281,-22.52
27.296,-21.12
27.312,-19.45
27.328,-17.83
27.343,-16.38
27.359,-14.96
27.375,-13.32
27.390,-11.14
27.406,-8.17
27.421,-4.5
27.437,-0.49
27.453,3.25
27.468,6.02
27.484,7.32
27.500,7.01
27.515,5.35
27.531,2.93
27.546,0.39
27.562,-1.8
27.578,-3.43
27.593,-4.53
27.609,-5.29
27.625,-5.83
27.640,-6.12
27.656,-6.06
27.671,-5.5
27.687,-4.42
27.703,-2.98
27.718,-1.55
27.734,-0.58
27.750,-0.59
27.765,-1.94
27.781,-4.74
27.796,-8.8
27.812,-13.63
27.828,-18.64
27.843,-23.26
27.859,-27.1
27.875,-30.03
27.890,-32.08
27.906,-33.33
27.921,-33.83
27.937,-33.6
27.953,-32.56
27.968,-30.71
27.984,-28.13
28.000,-25.01
28.015,-21.61
28.031,-18.24
28.046,-15.05
28.062,-12.04
28.078,-9.06
28.093,-5.9
28.109,-2.39
28.125,1.46
28.140,5.52
28.156,9.63
28.171,13.66
28.187,17.57
28.203,21.35
28.218,24.9
28.234,27.96
28.250,30.16
28.265,31.17
28.281,30.84
28.296,29.35
28.312,27.15
28.328,24.91
28.343,23.22
28.359,22.59
28.375,23.3
28.390,25.36
28.406,28.59
28.421,32.74
28.437,37.42
28.453,42.27
28.468,46.92
28.484,51.05
28.500,54.44
28.515,57.02
28.531,58.85
28.546,60.1
28.562,60.99
28.578,61.72
28.593,62.5
28.609,63.63
28.625,65.47
28.640,68.49
28.656,73.08
28.671,79.42
28.687,87.29
28.703,96.07
28.718,104.84
28.734,112.59
28.750,118.53
28.765,122.29
28.781,124.0
28.796,124.29
28.812,124.08
28.828,124.49
28.843,126.53
28.859,130.94
28.875,138.12
28.890,148.25
28.906,161.24
28.921,177.04
28.937,195.64
28.953,216.98
28.968,240.63
28.984,265.31
29.000,288.52
29.015,306.75
29.031,316.26
29.046,314.36
29.062,300.56
29.078,276.95
29.093,247.46
29.109,216.48
29.125,187.28
29.140,161.14
29.156,137.59
29.171,115.34
29.187,93.49
29.203,72.1
29.218,52.03
29.234,34.04
29.250,18.16
29.265,3.35
29.281,-12.2
29.296,-30.22
29.312,-51.74
29.328,-76.65
29.343,-103.74
29.359,-131.08
29.375,-156.77
29.390,-179.35
29.406,-198.3
29.421,-214.19
29.437,-228.59
29.453,-243.71
29.468,-261.66
29.484,-283.24
29.500,-306.83
29.515,-327.98
29.531,-340.07
29.546,-335.94
29.562,-310.24
29.578,-261.4
29.593,-192.95
29.609,-112.98
29.625,-32.51
29.640,37.2
29.656,87.24
29.671,112.87
29.687,114.15
29.703,95.27
29.718,63.22
29.734,26.09
29.750,-8.57
29.765,-34.88
29.781,-49.52
29.796,-52.12
29.812,-45.17
29.828,-33.45
29.843,-22.98
29.859,-19.24
29.875,-25.79
29.890,-43.48
29.906,-70.66
29.921,-104.11
29.937,-139.96
29.953,-174.39
29.968,-203.86
29.984,-225.24
30.000,-236.09
30.015,-235.31
30.031,-223.6
30.046,-203.6
30.062,-179.3
30.078,-154.91
30.093,-133.89
30.109,-118.39
30.125,-109.25
30.140,-106.63
30.156,-110.44
30.171,-120.54
30.187,-136.54
30.203,-157.34
30.218,-180.73
30.234,-203.39
30.250,-221.27
30.265,-230.34
30.281,-227.62
30.296,-212.02
30.312,-184.62
30.328,-148.32
30.343,-106.99
30.359,-64.38
30.375,-23.26
30.390,14.77
30.406,49.25
30.421,80.25
30.437,108.03
30.453,132.66
30.468,153.98
30.484,171.69
30.500,185.82
30.515,196.9
30.531,205.83
30.546,213.3
30.562,219.12
30.578,221.56
30.593,218.0
30.609,205.83
30.625,183.76
30.640,152.71
30.656,115.36
30.671,74.82
30.687,33.18
30.703,-8.9
30.718,-51.13
30.734,-91.61
30.750,-126.07
30.765,-148.86
30.781,-155.98
30.796,-148.15
30.812,-131.69
30.828,-116.47
30.843,-111.55
30.859,-121.06
30.875,-142.4
30.890,-167.98
30.906,-189.19
30.921,-200.35
30.937,-200.68
30.953,-193.5
30.968,-183.66
30.984,-174.88
31.000,-168.38
31.015,-163.1
31.031,-156.95
31.046,-148.15
31.062,-135.85
31.078,-120.45
31.093,-102.84
31.109,-83.8
31.125,-63.52
31.140,-41.52
31.156,-17.17
31.171,9.6
31.187,37.61
31.203,64.38
31.218,86.57
31.234,101.14
31.250,106.53
31.265,103.42
31.281,94.51
31.296,83.56
31.312,73.91
31.328,67.22
31.343,62.83
31.359,58.27
31.375,50.61
31.390,38.11
31.406,21.36
31.421,3.41
31.437,-11.26
31.453,-18.45
31.468,-16.15
31.484,-5.62
31.500,8.82
31.515,21.11
31.531,25.71
31.546,19.55
31.562,3.06
31.578,-20.23
31.593,-45.27
31.609,-67.48
31.625,-84.22
31.640,-94.98
31.656,-100.66
31.671,-102.26
31.687,-99.97
31.703,-93.16
31.718,-81.07
31.734,-63.86
31.750,-43.28
31.765,-22.52
31.781,-5.28
31.796,5.54
31.812,9.05
31.828,6.85
31.843,2.46
31.859,0.05
31.875,3.12
31.890,13.37
31.906,30.28
31.921,51.15
31.937,71.77
31.953,87.52
31.968,94.63
31.984,91.11
32.000,77.4
32.015,56.15
32.031,31.45
32.046,7.86
32.062,-10.55
32.078,-20.92
32.093,-21.91
32.109,-13.87
32.125,1.06
32.140,19.17
32.156,35.71
32.171,45.8
32.187,45.68
32.203,33.74
32.218,10.9
32.234,-19.76
32.250,-53.74
32.265,-86.09
32.281,-112.13
32.296,-128.26
32.312,-132.81
32.328,-126.66
32.343,-113.5
32.359,-99.18
32.375,-90.08
32.390,-91.08
32.406,-103.81
32.421,-125.87
32.437,-151.65
32.453,-174.35
32.468,-188.36
32.484,-191.08
32.500,-183.45
32.515,-168.89
32.531,-151.58
32.546,-134.61
32.562,-119.22
32.578,-104.85
32.593,-90.29
32.609,-74.66
32.625,-58.01
32.640,-41.13
32.656,-24.93
32.671,-9.83
32.687,4.38
32.703,18.16
32.718,31.73
32.734,44.67
32.750,56.11
32.765,65.19
32.781,71.63
32.796,75.9
32.812,79.15
32.828,82.65
32.843,87.21
32.859,92.91
32.875,99.06
32.890,104.63
32.906,108.71
32.921,110.78
32.937,110.89
32.953,109.42
32.968,106.88
32.984,103.57
33.000,99.62
33.015,94.92
33.031,89.31
33.046,82.77
33.062,75.45
33.078,67.8
33.093,60.4
33.109,53.74
33.125,47.83
33.140,42.19
33.156,35.8
33.171,27.6
33.187,17.03
33.203,4.55
33.218,-8.03
33.234,-17.96
33.250,-22.25
33.265,-18.67
33.281,-6.45
33.296,13.27
33.312,37.93
33.328,64.56
33.343,90.85
33.359,116.0
33.375,140.29
33.390,163.97
33.406,185.89
33.421,202.95
33.437,210.65
33.453,205.09
33.468,184.92
33.484,152.44
33.500,113.19
33.515,74.24
33.531,42.29
33.546,22.29
33.562,16.94
33.578,26.84
33.593,50.58
33.609,84.74
33.625,123.79
33.640,161.0
33.656,189.97
33.671,206.44
33.687,209.67
33.703,202.25
33.718,188.86
33.734,174.11
33.750,161.12
33.765,150.89
33.781,143.04
33.796,137.01
33.812,133.13
33.828,132.99
33.843,138.52
33.859,150.67
33.875,167.93
33.890,185.75
33.906,197.43
33.921,196.38
33.937,178.66
33.953,144.88
33.968,100.43
33.984,53.74
34.000,13.36
34.015,-14.97
34.031,-30.16
34.046,-35.69
34.062,-37.78
34.078,-42.83
34.093,-55.18
34.109,-75.73
34.125,-102.21
34.140,-130.35
34.156,-155.59
34.171,-174.9
34.187,-187.65
34.203,-195.57
34.218,-201.84
34.234,-209.69
34.250,-221.13
34.265,-236.3
34.281,-253.57
34.296,-270.27
34.312,-283.65
34.328,-291.6
34.343,-292.98
34.359,-287.48
34.375,-275.27
34.390,-256.84
34.406,-233.15
34.421,-205.9
34.437,-177.59
34.453,-151.18
34.468,-129.39
34.484,-113.77
34.500,-104.28
34.515,-99.3
34.531,-96.31
34.546,-92.82
34.562,-87.29
34.578,-79.3
34.593,-69.53
34.609,-59.26
34.625,-49.64
34.640,-41.4
34.656,-34.56
34.671,-28.68
34.687,-23.2
34.703,-17.67
34.718,-11.96
34.734,-6.26
34.750,-0.9
34.765,3.8
34.781,7.77
34.796,11.32
34.812,14.91
34.828,18.93
34.843,23.5
34.859,28.34
34.875,32.82
34.890,36.29
34.906,38.35
34.921,38.95
34.937,38.51
34.953,37.59
34.968,36.69
34.984,36.09
35.000,35.8
35.015,35.67
35.031,35.51
35.046,35.22
35.062,34.63
35.078,33.63
35.093,31.98
35.109,29.48
35.125,25.98
35.140,21.62
35.156,16.71
35.171,11.76
35.187,7.2
35.203,3.25
35.218,-0.14
35.234,-3.25
35.250,-6.41
35.265,-9.81
35.281,-13.42
35.296,-17.04
35.312,-20.37
35.328,-23.2
35.343,-25.58
35.359,-27.72
35.375,-30.04
35.390,-33.01
35.406,-37.11
35.421,-42.58
35.437,-49.25
35.453,-56.49
35.468,-63.04
35.484,-67.35
35.500,-67.8
35.515,-63.28
35.531,-53.54
35.546,-39.3
35.562,-22.12
35.578,-3.91
35.593,13.56
35.609,29.06
35.625,41.88
35.640,51.85
35.656,59.05
35.671,63.72
35.687,66.1
35.703,66.59
35.718,65.66
35.734,63.9
35.750,61.97
35.765,60.33
35.781,59.24
35.796,58.6
35.812,58.21
35.828,57.72
35.843,56.99
35.859,56.05
35.875,55.08
35.890,54.3
35.906,53.68
35.921,52.96
35.937,51.7
35.953,49.46
35.968,46.08
35.984,41.74
36.000,36.96
36.015,32.32
36.031,28.26
36.046,24.86
36.062,21.82
36.078,18.6
36.093,14.64
36.109,9.57
36.125,3.47
36.140,-3.16
36.156,-9.41
36.171,-14.16
36.187,-16.3
36.203,-15.1
36.218,-10.32
36.234,-2.36
36.250,7.81
36.265,18.89
36.281,29.58
36.296,38.83
36.312,46.12
36.328,51.41
36.343,54.88
36.359,56.89
36.375,57.65
36.390,57.33
36.406,56.06
36.421,53.99
36.437,51.41
36.453,48.63
36.468,45.94
36.484,43.49
36.500,41.4
36.515,39.65
36.531,38.22
36.546,37.16
36.562,36.35
36.578,35.74
36.593,35.12
36.609,34.21
36.625,32.71
36.640,30.41
36.656,27.18
36.671,23.16
36.687,18.63
36.703,13.92
36.718,9.34
36.734,4.96
36.750,0.67
36.765,-3.86
36.781,-8.94
36.796,-14.66
36.812,-20.63
36.828,-26.01
36.843,-29.64
36.859,-30.39
36.875,-27.56
36.890,-21.07
36.906,-11.53
36.921,-0.05
36.937,12.12
36.953,23.86
36.968,34.44
36.984,43.37
37.000,50.42
37.015,55.47
37.031,58.47
37.046,59.55
37.062,58.98
37.078,57.22
37.093,54.82
37.109,52.25
37.125,49.77
37.140,47.4
37.156,44.93
37.171,42.14
37.187,38.95
37.203,35.48
37.218,32.01
37.234,28.85
37.250,26.1
37.265,23.54
37.281,20.77
37.296,17.33
37.312,13.01
37.328,7.91
37.343,2.43
37.359,-3.0
37.375,-8.1
37.390,-12.83
37.406,-17.43
37.421,-22.16
37.437,-27.26
37.453,-32.85
37.468,-38.86
37.484,-44.97
37.500,-50.69
37.515,-55.22
37.531,-57.61
37.546,-57.07
37.562,-53.15
37.578,-46.01
37.593,-36.38
37.609,-25.33
37.625,-14.0
37.640,-3.3
37.656,6.16
37.671,14.12
37.687,20.47
37.703,25.17
37.718,28.26
37.734,29.8
37.750,29.98
37.765,29.06
37.781,27.4
37.796,25.32
37.812,23.12
37.828,20.96
37.843,18.92
37.859,16.98
37.875,15.07
37.890,13.16
37.906,11.22
37.921,9.27
37.937,7.36
37.953,5.42
37.968,3.28
37.984,0.75
38.000,-2.35
38.015,-6.08
38.031,-10.22
38.046,-14.42
38.062,-18.29
38.078,-21.64
38.093,-24.5
38.109,-27.19
38.125,-30.12
38.140,-33.64
38.156,-37.91
38.171,-42.78
38.187,-47.79
38.203,-52.22
38.218,-55.19
38.234,-55.79
38.250,-53.32
38.265,-47.51
38.281,-38.59
38.296,-27.35
38.312,-14.89
38.328,-2.39
38.343,9.11
38.359,19.02
38.375,27.1
38.390,33.39
38.406,38.01
38.421,41.08
38.437,42.62
38.453,42.76
38.468,41.71
38.484,39.87
38.500,37.74
38.515,35.74
38.531,34.12
38.546,32.9
38.562,31.93
38.578,31.01
38.593,30.07
38.609,29.12
38.625,28.23
38.640,27.37
38.656,26.41
38.671,25.11
38.687,23.22
38.703,20.64
38.718,17.4
38.734,13.71
38.750,9.91
38.765,6.25
38.781,2.91
38.796,-0.15
38.812,-3.05
38.828,-6.04
38.843,-9.32
38.859,-13.1
38.875,-17.44
38.890,-22.16
38.906,-26.83
38.921,-30.72
38.937,-32.91
38.953,-32.55
38.968,-29.13
38.984,-22.59
39.000,-13.43
39.015,-2.57
39.031,9.02
39.046,20.44
39.062,31.1
39.078,40.67
39.093,48.95
39.109,55.8
39.125,61.16
39.140,65.0
39.156,67.51
39.171,69.02
39.187,70.0
39.203,70.91
39.218,72.05
39.234,73.49
39.250,75.11
39.265,76.68
39.281,78.03
39.296,79.16
39.312,80.3
39.328,81.77
39.343,83.86
39.359,86.57
39.375,89.58
39.390,92.32
39.406,94.17
39.421,94.67
39.437,93.69
39.453,91.33
39.468,87.91
39.484,83.82
39.500,79.49
39.515,75.31
39.531,71.48
39.546,67.73
39.562,63.02
39.578,55.57
39.593,43.19
39.609,24.01
39.625,-2.85
39.640,-37.17
39.656,-77.63
39.671,-122.17
39.687,-168.26
39.703,-212.88
39.718,-252.49
39.734,-283.25
39.750,-301.58
39.765,-305.1
39.781,-293.57
39.796,-269.27
39.812,-236.6
39.828,-200.97
39.843,-167.4
39.859,-139.21
39.875,-117.46
39.890,-100.95
39.906,-86.98
39.921,-72.37
39.937,-54.69
39.953,-33.17
39.968,-9.09
39.984,14.6
40.000,34.26
40.015,46.87
40.031,51.09
40.046,47.75
40.062,39.57
40.078,30.31
40.093,23.49
40.109,21.3
40.125,24.2
40.140,30.99
40.156,39.65
40.171,48.18
40.187,55.27
40.203,60.42
40.218,63.69
40.234,65.3
40.250,65.29
40.265,63.67
40.281,60.61
40.296,56.75
40.312,53.11
40.328,50.77
40.343,50.38
40.359,51.8
40.375,54.15
40.390,56.07
40.406,56.28
40.421,53.87
40.437,48.53
40.453,40.53
40.468,30.71
40.484,20.4
40.500,11.06
40.515,3.99
40.531,-0.12
40.546,-1.39
40.562,-0.63
40.578,0.94
40.593,2.34
40.609,2.92
40.625,2.59
40.640,1.58
40.656,0.18
40.671,-1.36
40.687,-2.86
40.703,-4.04
40.718,-4.53
40.734,-3.82
40.750,-1.63
40.765,1.94
40.781,6.32
40.796,10.66
40.812,14.23
40.828,16.74
40.843,18.6
40.859,20.47
40.875,22.98
40.890,26.07
40.906,28.99
40.921,30.66
40.937,30.19
40.953,27.41
40.968,22.77
40.984,17.11
41.000,11.08
41.015,4.91
41.031,-1.6
41.046,-8.71
41.062,-16.31
41.078,-23.92
41.093,-30.67
41.109,-35.84
41.125,-39.09
41.140,-40.57
41.156,-40.76
41.171,-40.11
41.187,-39.0
41.203,-37.55
41.218,-35.96
41.234,-34.56
41.250,-33.81
41.265,-34.14
41.281,-35.57
41.296,-37.45
41.312,-38.59
41.328,-37.54
41.343,-33.11
41.359,-24.79
41.375,-12.93
41.390,1.42
41.406,16.83
41.421,31.77
41.437,44.88
41.453,55.19
41.468,62.09
41.484,65.45
41.500,65.54
41.515,63.04
41.531,58.94
41.546,54.28
41.562,49.81
41.578,45.77
41.593,41.82
41.609,37.31
41.625,31.79
41.640,25.36
41.656,18.75
41.671,13.05
41.687,9.11
41.703,7.16
41.718,6.73
41.734,6.88
41.750,6.69
41.765,5.65
41.781,3.69
41.796,1.07
41.812,-1.75
41.828,-4.31
41.843,-6.14
41.859,-6.84
41.875,-6.26
41.890,-4.74
41.906,-2.98
41.921,-1.9
41.937,-2.18
41.953,-3.98
41.968,-6.86
41.984,-10.04
42.000,-12.86
42.015,-15.0
42.031,-16.67
42.046,-18.14
42.062,-19.57
42.078,-20.71
42.093,-20.96
42.109,-19.73
42.125,-16.66
42.140,-11.7
42.156,-4.96
42.171,3.53
42.187,13.93
42.203,26.38
42.218,40.69
42.234,56.13
42.250,71.36
42.265,84.8
42.281,95.19
42.296,101.98
42.312,105.61
42.328,107.29
42.343,108.57
42.359,110.93
42.375,115.4
42.390,122.17
42.406,130.44
42.421,138.42
42.437,143.48
42.453,142.89
42.468,134.82
42.484,119.26
42.500,98.44
42.515,76.37
42.531,57.43
42.546,44.86
42.562,39.47
42.578,39.47
42.593,41.29
42.609,40.95
42.625,35.29
42.640,22.62
42.656,2.77
42.671,-23.26
42.687,-53.59
42.703,-85.76
42.718,-117.04
42.734,-144.81
42.750,-166.93
42.765,-182.19
42.781,-190.38
42.796,-192.25
42.812,-189.21
42.828,-183.1
42.843,-175.87
42.859,-169.38
42.875,-164.96
42.890,-163.04
42.906,-162.95
42.921,-163.09
42.937,-161.52
42.953,-156.79
42.968,-148.45
42.984,-137.06
43.000,-123.78
43.015,-109.81
43.031,-95.9
43.046,-82.4
43.062,-69.45
43.078,-57.26
43.093,-46.36
43.109,-37.51
43.125,-31.42
43.140,-28.48
43.156,-28.64
43.171,-31.43
43.187,-36.18
43.203,-42.1
43.218,-48.3
43.234,-53.94
43.250,-58.14
43.265,-60.16
43.281,-59.42
43.296,-55.65
43.312,-48.93
43.328,-39.86
43.343,-29.56
43.359,-19.47
43.375,-11.21
43.390,-6.04
43.406,-4.61
43.421,-6.82
43.437,-11.86
43.453,-18.48
43.468,-25.3
43.484,-31.03
43.500,-34.6
43.515,-35.29
43.531,-32.7
43.546,-26.83
43.562,-18.1
43.578,-7.29
43.593,4.57
43.609,16.3
43.625,26.8
43.640,35.08
43.656,40.42
43.671,42.53
43.687,41.34
43.703,37.01
43.718,29.76
43.734,20.01
43.750,8.48
43.765,-3.39
43.781,-13.55
43.796,-19.7
43.812,-20.07
43.828,-14.27
43.843,-3.65
43.859,9.08
43.875,20.72
43.890,28.65
43.906,31.74
43.921,30.39
43.937,26.22
43.953,21.42
43.968,18.03
43.984,17.51
44.000,20.52
44.015,26.7
44.031,34.86
44.046,43.17
44.062,49.62
44.078,52.34
44.093,50.02
44.109,41.99
44.125,28.3
44.140,9.68
44.156,-12.6
44.171,-36.81
44.187,-60.87
44.203,-82.75
44.218,-100.65
44.234,-113.18
44.250,-119.54
44.265,-119.5
44.281,-113.43
44.296,-102.23
44.312,-87.25
44.328,-70.11
44.343,-52.46
44.359,-35.75
44.375,-20.94
44.390,-8.62
44.406,1.04
44.421,8.01
44.437,12.36
44.453,14.24
44.468,13.86
44.484,11.56
44.500,7.8
44.515,3.03
44.531,-2.4
44.546,-8.25
44.562,-14.29
44.578,-20.27
44.593,-25.68
44.609,-29.92
44.625,-32.33
44.640,-32.41
44.656,-29.97
44.671,-25.27
44.687,-18.8
44.703,-11.23
44.718,-3.14
44.734,5.09
44.750,13.32
44.765,21.48
44.781,29.36
44.796,36.46
44.812,41.92
44.828,44.92
44.843,44.92
44.859,42.03
44.875,37.02
44.890,31.0
44.906,25.01
44.921,19.64
44.937,15.0
44.953,10.99
44.968,7.61
44.984,5.07
45.000,3.74
45.015,3.81
45.031,5.01
45.046,6.62
45.062,7.79
45.078,7.91
45.093,6.89
45.109,5.17
45.125,3.36
45.140,1.93
45.156,0.92
45.171,-0.04
45.187,-1.47
45.203,-3.76
45.218,-6.94
45.234,-10.69
45.250,-14.52
45.265,-17.97
45.281,-20.89
45.296,-23.46
45.312,-26.1
45.328,-29.29
45.343,-33.4
45.359,-38.59
45.375,-44.7
45.390,-51.4
45.406,-58.03
45.421,-63.79
45.437,-67.81
45.453,-69.3
45.468,-67.74
45.484,-63.05
45.500,-55.6
45.515,-46.06
45.531,-35.22
45.546,-23.82
45.562,-12.45
45.578,-1.5
45.593,8.7
45.609,17.92
45.625,25.94
45.640,32.65
45.656,38.03
45.671,42.18
45.687,45.27
45.703,47.46
45.718,48.92
45.734,49.77
45.750,50.13
45.765,50.12
45.781,49.88
45.796,49.52
45.812,49.14
45.828,48.79
45.843,48.5
45.859,48.25
45.875,47.95
45.890,47.47
45.906,46.59
45.921,45.18
45.937,43.19
45.953,40.72
45.968,38.03
45.984,35.38
46.000,32.97
46.015,30.8
46.031,28.68
46.046,26.38
46.062,23.71
46.078,20.61
46.093,17.18
46.109,13.62
46.125,10.03
46.140,6.42
46.156,2.66
46.171,-1.42
46.187,-5.96
46.203,-10.96
46.218,-16.3
46.234,-21.75
46.250,-26.91
46.265,-31.3
46.281,-34.26
46.296,-35.11
46.312,-33.31
46.328,-28.69
46.343,-21.53
46.359,-12.53
46.375,-2.67
46.390,7.15
46.406,16.17
46.421,24.02
46.437,30.59
46.453,35.9
46.468,40.02
46.484,42.99
46.500,44.83
46.515,45.57
46.531,45.26
46.546,44.03
46.562,42.05
46.578,39.57
46.593,36.84
46.609,34.13
46.625,31.58
46.640,29.32
46.656,27.48
46.671,26.19
46.687,25.57
46.703,25.67
46.718,26.35
46.734,27.28
46.750,28.04
46.765,28.26
46.781,27.79
46.796,26.73
46.812,25.37
46.828,24.01
46.843,22.7
46.859,21.29
46.875,19.43
46.890,16.84
46.906,13.39
46.921,9.21
46.937,4.59
46.953,-0.04
46.968,-4.31
46.984,-7.96
47.000,-10.86
47.015,-13.03
47.031,-14.62
47.046,-15.91
47.062,-17.28
47.078,-19.09
47.093,-21.41
47.109,-23.98
47.125,-26.09
47.140,-26.83
47.156,-25.36
47.171,-21.28
47.187,-14.73
47.203,-6.39
47.218,2.81
47.234,11.97
47.250,20.45
47.265,27.89
47.281,34.12
47.296,39.09
47.312,42.76
47.328,45.16
47.343,46.38
47.359,46.56
47.375,45.87
47.390,44.47
47.406,42.48
47.421,39.99
47.437,37.15
47.453,34.16
47.468,31.3
47.484,28.87
47.500,27.09
47.515,26.08
47.531,25.78
47.546,25.96
47.562,26.3
47.578,26.43
47.593,26.04
47.609,24.96
47.625,23.19
47.640,20.85
47.656,18.17
47.671,15.4
47.687,12.74
47.703,10.26
47.718,7.92
47.734,5.51
47.750,2.86
47.765,-0.08
47.781,-3.23
47.796,-6.36
47.812,-9.23
47.828,-11.77
47.843,-14.13
47.859,-16.58
47.875,-19.38
47.890,-22.66
47.906,-26.23
47.921,-29.64
47.937,-32.27
47.953,-33.42
47.968,-32.56
47.984,-29.42
48.000,-24.14
48.015,-17.25
48.031,-9.47
48.046,-1.65
48.062,5.57
48.078,11.85
48.093,17.16
48.109,21.63
48.125,25.44
48.140,28.68
48.156,31.28
48.171,33.1
48.187,34.03
48.203,34.06
48.218,33.35
48.234,32.17
48.250,30.83
48.265,29.58
48.281,28.56
48.296,27.72
48.312,26.96
48.328,26.21
48.343,25.44
48.359,24.7
48.375,23.98
48.390,23.26
48.406,22.34
48.421,21.08
48.437,19.38
48.453,17.35
48.468,15.2
48.484,13.16
48.500,11.29
48.515,9.46
48.531,7.39
48.546,4.9
48.562,1.92
48.578,-1.38
48.593,-4.73
48.609,-7.88
48.625,-10.72
48.640,-13.25
48.656,-15.63
48.671,-17.98
48.687,-20.45
48.703,-23.13
48.718,-26.08
48.734,-29.28
48.750,-32.61
48.765,-35.78
48.781,-38.32
48.796,-39.7
48.812,-39.43
48.828,-37.23
48.843,-33.15
48.859,-27.57
48.875,-21.08
48.890,-14.28
48.906,-7.71
48.921,-1.65
48.937,3.74
48.953,8.44
48.968,12.4
48.984,15.62
49.000,18.04
49.015,19.75
49.031,20.87
49.046,21.6
49.062,22.12
49.078,22.57
49.093,22.95
49.109,23.24
49.125,23.39
49.140,23.4
49.156,23.4
49.171,23.49
49.187,23.7
49.203,23.97
49.218,24.08
49.234,23.77
49.250,22.85
49.265,21.22
49.281,18.97
49.296,16.27
49.312,13.35
49.328,10.43
49.343,7.63
49.359,5.01
49.375,2.55
49.390,0.18
49.406,-2.17
49.421,-4.58
49.437,-7.09
49.453,-9.68
49.468,-12.26
49.484,-14.75
49.500,-17.09
49.515,-19.29
49.531,-21.4
49.546,-23.54
49.562,-25.84
49.578,-28.41
49.593,-31.26
49.609,-34.3
49.625,-37.23
49.640,-39.67
49.656,-41.1
49.671,-41.05
49.687,-39.23
49.703,-35.65
49.718,-30.65
49.734,-24.78
49.750,-18.6
49.765,-12.57
49.781,-6.93
49.796,-1.76
49.812,2.93
49.828,7.18
49.843,10.92
49.859,14.09
49.875,16.64
49.890,18.58
49.906,20.0
49.921,21.02
49.937,21.73
49.953,22.19
49.968,22.41
49.984,22.38
50.000,22.13
50.015,21.68
50.031,21.11
50.046,20.49
50.062,19.88
50.078,19.24
50.093,18.49
50.109,17.5
50.125,16.17
50.140,14.44
50.156,12.31
50.171,9.92
50.187,7.4
50.203,4.98
50.218,2.82
50.234,0.99
50.250,-0.59
50.265,-2.11
50.281,-3.75
50.296,-5.67
50.312,-7.81
50.328,-10.03
50.343,-12.08
50.359,-13.74
50.375,-15.01
50.390,-16.06
50.406,-17.21
50.421,-18.82
50.437,-21.1
50.453,-24.02
50.468,-27.34
50.484,-30.63
50.500,-33.3
50.515,-34.82
50.531,-34.76
50.546,-32.91
50.562,-29.36
50.578,-24.44
50.593,-18.63
50.609,-12.49
50.625,-6.54
50.640,-1.1
50.656,3.61
50.671,7.53
50.687,10.65
50.703,12.97
50.718,14.55
50.734,15.49
50.750,15.91
50.765,15.97
50.781,15.83
50.796,15.58
50.812,15.27
50.828,14.95
50.843,14.66
50.859,14.52
50.875,14.63
50.890,15.04
50.906,15.71
50.921,16.47
50.937,17.14
50.953,17.56
50.968,17.69
50.984,17.5
51.000,17.04
51.015,16.28
51.031,15.18
51.046,13.74
51.062,11.94
51.078,9.86
51.093,7.56
51.109,5.09
51.125,2.49
51.140,-0.17
51.156,-2.78
51.171,-5.23
51.187,-7.42
51.203,-9.34
51.218,-11.05
51.234,-12.67
51.250,-14.34
51.265,-16.18
51.281,-18.28
51.296,-20.67
51.312,-23.33
51.328,-26.16
51.343,-28.87
51.359,-31.08
51.375,-32.28
51.390,-32.04
51.406,-30.11
51.421,-26.52
51.437,-21.64
51.453,-15.98
51.468,-10.13
51.484,-4.55
51.500,0.46
51.515,4.83
51.531,8.62
51.546,11.92
51.562,14.82
51.578,17.33
51.593,19.45
51.609,21.18
51.625,22.54
51.640,23.57
51.656,24.36
51.671,24.95
51.687,25.35
51.703,25.49
51.718,25.27
51.734,24.62
51.750,23.58
51.765,22.32
51.781,21.07
51.796,20.01
51.812,19.14
51.828,18.31
51.843,17.23
51.859,15.66
51.875,13.54
51.890,11.08
51.906,8.57
51.921,6.33
51.937,4.48
51.953,2.89
51.968,1.23
51.984,-0.78
52.000,-3.28
52.015,-6.19
52.031,-9.17
52.046,-11.97
52.062,-14.4
52.078,-16.49
52.093,-18.38
52.109,-20.26
52.125,-22.21
52.140,-24.26
52.156,-26.41
52.171,-28.71
52.187,-31.19
52.203,-33.84
52.218,-36.47
52.234,-38.66
52.250,-39.92
52.265,-39.81
52.281,-38.06
52.296,-34.74
52.312,-30.17
52.328,-24.81
52.343,-19.09
52.359,-13.33
52.375,-7.7
52.390,-2.27
52.406,2.89
52.421,7.66
52.437,11.87
52.453,15.32
52.468,17.87
52.484,19.49
52.500,20.28
52.515,20.42
52.531,20.13
52.546,19.6
52.562,18.91
52.578,18.12
52.593,17.27
52.609,16.39
52.625,15.53
52.640,14.72
52.656,13.94
52.671,13.09
52.687,12.14
52.703,10.98
52.718,9.55
52.734,7.84
52.750,5.83
52.765,3.57
52.781,1.2
52.796,-1.12
52.812,-3.23
52.828,-5.07
52.843,-6.71
52.859,-8.32
52.875,-10.07
52.890,-12.08
52.906,-14.35
52.921,-16.74
52.937,-19.06
52.953,-21.19
52.968,-23.14
52.984,-25.0
53.000,-26.96
53.015,-29.11
53.031,-31.44
53.046,-33.89
53.062,-36.33
53.078,-38.61
53.093,-40.62
53.109,-42.17
53.125,-43.0
53.140,-42.8
53.156,-41.26
53.171,-38.23
53.187,-33.85
53.203,-28.45
53.218,-22.59
53.234,-16.74
53.250,-11.27
53.265,-6.34
53.281,-1.93
53.296,2.03
53.312,5.53
53.328,8.41
53.343,10.57
53.359,11.92
53.375,12.63
53.390,13.0
53.406,13.38
53.421,13.98
53.437,14.85
53.453,15.84
53.468,16.73
53.484,17.37
53.500,17.7
53.515,17.75
53.531,17.59
53.546,17.21
53.562,16.61
53.578,15.79
53.593,14.79
53.609,13.67
53.625,12.54
53.640,11.43
53.656,10.36
53.671,9.28
53.687,8.07
53.703,6.64
53.718,4.88
53.734,2.78
53.750,0.39
53.765,-2.09
53.781,-4.47
53.796,-6.56
53.812,-8.3
53.828,-9.76
53.843,-11.14
53.859,-12.61
53.875,-14.29
53.890,-16.15
53.906,-18.14
53.921,-20.16
53.937,-22.09
53.953,-23.78
53.968,-25.0
53.984,-25.34
54.000,-24.46
54.015,-22.12
54.031,-18.32
54.046,-13.39
54.062,-7.78
54.078,-2.01
54.093,3.52
54.109,8.57
54.125,13.05
54.140,16.89
54.156,20.02
54.171,22.43
54.187,24.13
54.203,25.18
54.218,25.73
54.234,25.92
54.250,25.89
54.265,25.75
54.281,25.57
54.296,25.31
54.312,24.94
54.328,24.34
54.343,23.44
54.359,22.3
54.375,20.99
54.390,19.68
54.406,18.5
54.421,17.54
54.437,16.75
54.453,16.02
54.468,15.24
54.484,14.35
54.500,13.37
54.515,12.33
54.531,11.23
54.546,10.0
54.562,8.51
54.578,6.56
54.593,4.02
54.609,0.88
54.625,-2.72
54.640,-6.49
54.656,-10.14
54.671,-13.5
54.687,-16.57
54.703,-19.5
54.718,-22.52
54.734,-25.77
54.750,-29.22
54.765,-32.67
54.781,-35.7
54.796,-37.91
54.812,-38.86
54.828,-38.25
54.843,-35.97
54.859,-32.12
54.875,-26.93
54.890,-20.86
54.906,-14.41
54.921,-8.04
54.937,-2.1
54.953,3.23
54.968,7.96
54.984,12.15
55.000,15.85
55.015,19.08
55.031,21.74
55.046,23.65
55.062,24.76
55.078,25.06
55.093,24.77
55.109,24.15
55.125,23.45
55.140,22.79
55.156,22.21
55.171,21.67
55.187,21.14
55.203,20.62
55.218,20.11
55.234,19.61
55.250,19.02
55.265,18.26
55.281,17.27
55.296,16.03
55.312,14.57
55.328,12.87
55.343,10.89
55.359,8.57
55.375,5.95
55.390,3.16
55.406,0.38
55.421,-2.24
55.437,-4.6
55.453,-6.78
55.468,-8.88
55.484,-10.99
55.500,-13.14
55.515,-15.31
55.531,-17.48
55.546,-19.67
55.562,-21.93
55.578,-24.29
55.593,-26.79
55.609,-29.46
55.625,-32.26
55.640,-35.1
55.656,-37.74
55.671,-39.83
55.687,-40.94
55.703,-40.69
55.718,-38.85
55.734,-35.42
55.750,-30.61
55.765,-24.78
55.781,-18.36
55.796,-11.78
55.812,-5.38
55.828,0.56
55.843,5.84
55.859,10.32
55.875,14.04
55.890,17.12
55.906,19.7
55.921,21.87
55.937,23.69
55.953,25.15
55.968,26.21
55.984,26.79
56.000,26.84
56.015,26.27
56.031,25.08
56.046,23.35
56.062,21.21
56.078,18.9
56.093,16.64
56.109,14.55
56.125,12.65
56.140,10.82
56.156,8.9
56.171,6.78
56.187,4.47
56.203,2.02
56.218,-0.42
56.234,-2.76
56.250,-4.96
56.265,-7.01
56.281,-8.96
56.296,-10.93
56.312,-13.03
56.328,-15.29
56.343,-17.74
56.359,-20.32
56.375,-22.91
56.390,-25.37
56.406,-27.58
56.421,-29.53
56.437,-31.32
56.453,-33.09
56.468,-35.0
56.484,-37.14
56.500,-39.42
56.515,-41.63
56.531,-43.4
56.546,-44.31
56.562,-43.99
56.578,-42.2
56.593,-38.9
56.609,-34.21
56.625,-28.49
56.640,-22.15
56.656,-15.69
56.671,-9.5
56.687,-3.85
56.703,1.15
56.718,5.5
56.734,9.26
56.750,12.44
56.765,15.04
56.781,17.02
56.796,18.37
56.812,19.21
56.828,19.64
56.843,19.87
56.859,20.01
56.875,20.09
56.890,20.08
56.906,19.98
56.921,19.81
56.937,19.61
56.953,19.43
56.968,19.16
56.984,18.69
57.000,17.93
57.015,16.83
57.031,15.44
57.046,13.91
57.062,12.34
57.078,10.79
57.093,9.21
57.109,7.49
57.125,5.53
57.140,3.34
57.156,0.91
57.171,-1.67
57.187,-4.26
57.203,-6.7
57.218,-8.83
57.234,-10.51
57.250,-11.77
57.265,-12.72
57.281,-13.56
57.296,-14.59
57.312,-15.98
57.328,-17.75
57.343,-19.81
57.359,-21.81
57.375,-23.3
57.390,-23.78
57.406,-22.84
57.421,-20.31
57.437,-16.32
57.453,-11.21
57.468,-5.46
57.484,0.43
57.500,6.1
57.515,11.37
57.531,16.18
57.546,20.5
57.562,24.29
57.578,27.48
57.593,29.97
57.609,31.68
57.625,32.58
57.640,32.69
57.656,32.11
57.671,30.98
57.687,29.5
57.703,27.91
57.718,26.43
57.734,25.23
57.750,24.35
57.765,23.76
57.781,23.36
57.796,23.04
57.812,22.68
57.828,22.21
57.843,21.57
57.859,20.65
57.875,19.38
57.890,17.67
57.906,15.51
57.921,12.92
57.937,10.03
57.953,6.92
57.968,3.72
57.984,0.55
58.000,-2.47
58.015,-5.21
58.031,-7.6
58.046,-9.64
58.062,-11.44
58.078,-13.17
58.093,-14.98
58.109,-16.91
58.125,-18.93
58.140,-20.99
58.156,-23.05
58.171,-25.14
58.187,-27.25
58.203,-29.24
58.218,-30.75
58.234,-31.28
58.250,-30.4
58.265,-27.89
58.281,-23.91
58.296,-18.88
58.312,-13.31
58.328,-7.61
58.343,-2.04
58.359,3.25
58.375,8.21
58.390,12.72
58.406,16.64
58.421,19.83
58.437,22.25
58.453,23.96
58.468,25.1
58.484,25.83
58.500,26.22
58.515,26.29
58.531,25.99
58.546,25.34
58.562,24.42
58.578,23.4
58.593,22.44
58.609,21.61
58.625,20.87
58.640,20.1
58.656,19.12
58.671,17.81
58.687,16.11
58.703,14.05
58.718,11.71
58.734,9.21
58.750,6.64
58.765,4.14
58.781,1.8
58.796,-0.38
58.812,-2.46
58.828,-4.61
58.843,-7.02
58.859,-9.79
58.875,-12.87
58.890,-16.15
58.906,-19.39
58.921,-22.45
58.937,-25.31
58.953,-28.06
58.968,-30.82
58.984,-33.69
59.000,-36.68
59.015,-39.71
59.031,-42.64
59.046,-45.26
59.062,-47.31
59.078,-48.43
59.093,-48.28
59.109,-46.54
59.125,-43.13
59.140,-38.24
59.156,-32.32
59.171,-25.92
59.187,-19.48
59.203,-13.26
59.218,-7.31
59.234,-1.62
59.250,3.75
59.265,8.62
59.281,12.73
59.296,15.81
59.312,17.7
59.328,18.52
59.343,18.49
59.359,17.97
59.375,17.25
59.390,16.53
59.406,15.88
59.421,15.33
59.437,14.89
59.453,14.58
59.468,14.39
59.484,14.25
59.500,14.08
59.515,13.68
59.531,12.89
59.546,11.63
59.562,9.98
59.578,8.13
59.593,6.3
59.609,4.65
59.625,3.21
59.640,1.89
59.656,0.55
59.671,-0.96
59.687,-2.71
59.703,-4.71
59.718,-6.89
59.734,-9.16
59.750,-11.44
59.765,-13.66
59.781,-15.76
59.796,-17.64
59.812,-19.27
59.828,-20.63
59.843,-21.78
59.859,-22.8
59.875,-23.81
59.890,-24.91
59.906,-26.1
59.921,-27.24
59.937,-28.0
59.953,-27.89
59.968,-26.44
59.984,-23.31
